# dimensionless total lensed [l(l+1)/2pi] C_l's
# for l=2 to 3000, i.e. number of multipoles equal to 2999
#
# -> if you prefer output in CAMB/HealPix/LensPix units/order, set 'format' to 'camb' in input file
# -> if you don't want to see such a header, set 'headers' to 'no' in input file
# -> for CMB lensing (phi), these are C_l^phi-phi for the lensing potential.
#    Remember the conversion factors:
#    C_l^dd (deflection) = l(l+1) C_l^phi-phi
#    C_l^gg (shear/convergence) = 1/4 (l(l+1))^2 C_l^phi-phi
#
# 1:l     2:TT                     3:EE                     4:TE                     5:BB                     6:phiphi                 7:TPhi                   8:Ephi               
    2       1.379808210526e-10       3.875186618792e-15       3.400979840923e-13       2.399031549305e-19       8.266144676978e-09       4.484130482135e-10      -1.780048576691e-12 
    3       1.307162182776e-10       5.223250257489e-15       3.887813875967e-13       4.799560151670e-19       5.091943918335e-09       3.188255388859e-10      -1.388503816164e-12 
    4       1.237756687143e-10       4.773183445349e-15       3.698381674732e-13       8.002540592241e-19       3.549581478490e-09       2.417748744985e-10      -9.466471774577e-13 
    5       1.185519752363e-10       3.376137924896e-15       3.204953389388e-13       1.200982334936e-18       2.653408635337e-09       1.911610915989e-10      -5.613067220937e-13 
    6       1.148911063051e-10       1.985675935185e-15       2.627235258633e-13       1.682360152656e-18       2.074725111897e-09       1.555912756951e-10      -2.644273947198e-13 
    7       1.125142871856e-10       1.085540865042e-15       2.095604964010e-13       2.244633852556e-18       1.674777843787e-09       1.294503590361e-10      -6.234411305737e-14 
    8       1.111086547865e-10       6.723311006682e-16       1.671220276146e-13       2.888068848619e-18       1.384254599954e-09       1.096695718149e-10       5.349741252134e-14 
    9       1.103856531253e-10       5.277216245344e-16       1.373910078471e-13       3.612941290406e-18       1.165433846864e-09       9.432711095600e-11       1.002106636659e-13 
   10       1.102527088695e-10       4.610839481042e-16       1.196843637299e-13       4.419529699438e-18       9.961857831192e-10       8.212252984081e-11       9.879246268982e-14 
   11       1.104933317241e-10       3.971560801875e-16       1.118673470023e-13       5.308106937060e-18       8.388564032432e-10       7.243608757790e-11       7.037975675254e-14 
   12       1.110407838105e-10       3.415100388309e-16       1.113651942047e-13       6.278932845080e-18       7.331794517676e-10       6.407686576938e-11       3.241431668175e-14 
   13       1.118659601932e-10       3.151686235172e-16       1.156433977773e-13       7.332247869860e-18       6.464145186071e-10       5.727961562279e-11      -2.048779903838e-15 
   14       1.128971210023e-10       3.206141492726e-16       1.225664051885e-13       8.468267936148e-18       5.742205243470e-10       5.145667040390e-11      -2.604519757806e-14 
   15       1.140385205967e-10       3.457520244609e-16       1.306795973572e-13       9.687180780723e-18       5.134435791306e-10       4.640939349980e-11      -3.727983194664e-14 
   16       1.153572591535e-10       3.808255246731e-16       1.391110995663e-13       1.098914389021e-17       4.617600984084e-10       4.207785039655e-11      -3.716878690821e-14 
   17       1.167632966144e-10       4.264388525692e-16       1.474271179836e-13       1.237428411506e-17       4.174172853779e-10       3.833675683761e-11      -2.949053150253e-14 
   18       1.182687342406e-10       4.895228065302e-16       1.556943531339e-13       1.384269811266e-17       3.789240665016e-10       3.505805941388e-11      -1.886983495063e-14 
   19       1.198858886374e-10       5.735477382797e-16       1.641071640052e-13       1.539445944208e-17       3.456730228589e-10       3.219148354974e-11      -8.672567212925e-15 
   20       1.215558781417e-10       6.796193942007e-16       1.728599043047e-13       1.702961371505e-17       3.163832032004e-10       2.963912311068e-11      -2.016484239334e-15 
   21       1.232852781589e-10       8.061779712075e-16       1.820311460516e-13       1.874819624102e-17       2.905956613680e-10       2.738165250841e-11       3.614657847752e-16 
   22       1.250707568540e-10       9.505183308328e-16       1.916014178755e-13       2.055022606451e-17       2.676945477327e-10       2.538731376086e-11      -1.102563909610e-15 
   23       1.269126776518e-10       1.113155054125e-15       2.013565750190e-13       2.243572564376e-17       2.473654073110e-10       2.362540386148e-11      -5.062173939122e-15 
   24       1.287927994681e-10       1.295372539105e-15       2.109666006491e-13       2.440471486978e-17       2.291385795099e-10       2.203988428746e-11      -9.641043682707e-15 
   25       1.307177747457e-10       1.497209002791e-15       2.201344976458e-13       2.645723234401e-17       2.128008048392e-10       2.059170740577e-11      -1.360607627980e-14 
   26       1.326867386855e-10       1.718308920747e-15       2.285552088316e-13       2.859332844242e-17       1.980577446619e-10       1.923995812504e-11      -1.593459269927e-14 
   27       1.346999154377e-10       1.959372068241e-15       2.360251608857e-13       3.081308273536e-17       1.847330445332e-10       1.800082248359e-11      -1.634800116083e-14 
   28       1.367481858363e-10       2.221561192515e-15       2.423894472811e-13       3.311659903720e-17       1.725972256511e-10       1.689653812393e-11      -1.494416350718e-14 
   29       1.388369341849e-10       2.506585337713e-15       2.476210060681e-13       3.550402067537e-17       1.615885891248e-10       1.591686430766e-11      -1.232562266933e-14 
   30       1.409634522344e-10       2.816502599806e-15       2.517561932151e-13       3.797552312092e-17       1.515892058269e-10       1.502744412706e-11      -9.441040544854e-15 
   31       1.431147929248e-10       3.153336309374e-15       2.548578706772e-13       4.053131181661e-17       1.423954311409e-10       1.418660349394e-11      -7.295463831362e-15 
   32       1.452957945853e-10       3.517990847883e-15       2.569762346544e-13       4.317162194147e-17       1.339600768440e-10       1.339457336305e-11      -6.137040861476e-15 
   33       1.475089569712e-10       3.910915417458e-15       2.581767841935e-13       4.589672358308e-17       1.262237874740e-10       1.266135243090e-11      -5.968545047290e-15 
   34       1.497494457229e-10       4.332521217848e-15       2.585090012487e-13       4.870691624764e-17       1.190786127938e-10       1.199219013378e-11      -6.697863706426e-15 
   35       1.520175424281e-10       4.783712943707e-15       2.578563453113e-13       5.160249926612e-17       1.124881372755e-10       1.138292410797e-11      -7.944910759472e-15 
   36       1.543087640902e-10       5.265535760906e-15       2.560313301379e-13       5.458379491750e-17       1.063995994954e-10       1.082207992044e-11      -9.153606156457e-15 
   37       1.566147558001e-10       5.778974084681e-15       2.528451097940e-13       5.765113697646e-17       1.007338991662e-10       1.029571737619e-11      -9.779911711619e-15 
   38       1.589408884728e-10       6.324743306959e-15       2.482193247024e-13       6.080479758560e-17       9.547656761708e-11       9.801834535782e-12      -9.794652430261e-15 
   39       1.612933402198e-10       6.903422603448e-15       2.421100298965e-13       6.404503770898e-17       9.061111897743e-11       9.340138649755e-12      -9.344807776128e-15 
   40       1.636737240342e-10       7.515503395996e-15       2.344780929771e-13       6.737212702547e-17       8.609137862788e-11       8.907908544417e-12      -8.622902726390e-15 
   41       1.660806406056e-10       8.161442356305e-15       2.252971853719e-13       7.078631516943e-17       8.185760748898e-11       8.501236332721e-12      -7.837380670376e-15 
   42       1.685161883325e-10       8.841854867488e-15       2.145802260861e-13       7.428773363758e-17       7.789741714530e-11       8.119766989469e-12      -7.104584456302e-15 
   43       1.709807017981e-10       9.557374949447e-15       2.023620075103e-13       7.787646233836e-17       7.420032305869e-11       7.763131773526e-12      -6.526889518049e-15 
   44       1.734704963606e-10       1.030860035986e-14       1.886930110775e-13       8.155255409622e-17       7.073945957094e-11       7.429502803903e-12      -6.223299085850e-15 
   45       1.759803025302e-10       1.109608658987e-14       1.736180053016e-13       8.531601641398e-17       6.748119308060e-11       7.116308850567e-12      -6.290944291959e-15 
   46       1.785123217341e-10       1.192033063660e-14       1.571023239251e-13       8.916675445360e-17       6.442046272896e-11       6.822919176745e-12      -6.673813294270e-15 
   47       1.810692392028e-10       1.278177954528e-14       1.390849092814e-13       9.310460798036e-17       6.155378622272e-11       6.548559013629e-12      -7.256254063161e-15 
   48       1.836514410855e-10       1.368083246024e-14       1.194981353175e-13       9.712936368287e-17       5.886860125314e-11       6.291474642834e-12      -7.897572541524e-15 
   49       1.862568008147e-10       1.461783870900e-14       9.826732929602e-14       1.012407524449e-16       5.634258977967e-11       6.048862128053e-12      -8.430633532831e-15 
   50       1.888823013035e-10       1.559305596929e-14       7.532371968796e-14       1.054384628850e-16       5.395041492697e-11       5.817697155451e-12      -8.706656202830e-15 
   51       1.915299162722e-10       1.660651582817e-14       5.064853282396e-14       1.097221926381e-16       5.168765514470e-11       5.597655446344e-12      -8.747181084855e-15 
   52       1.942019560602e-10       1.765811841878e-14       2.424003901405e-14       1.140916062779e-16       4.955219868776e-11       5.388861865824e-12      -8.630934349524e-15 
   53       1.968992470992e-10       1.874766544365e-14      -3.898677614362e-15       1.185463183495e-16       4.753707968307e-11       5.191030419224e-12      -8.451994819234e-15 
   54       1.996210046702e-10       1.987485638045e-14      -3.375956559325e-14       1.230858914068e-16       4.563015124216e-11       5.003435388892e-12      -8.320568720400e-15 
   55       2.023659365120e-10       2.103939872177e-14      -6.533638753733e-14       1.277098926197e-16       4.381779922637e-11       4.825168121816e-12      -8.336205262581e-15 
   56       2.051361661967e-10       2.224137945684e-14      -9.864738890000e-14       1.324180845613e-16       4.209791278010e-11       4.656048217412e-12      -8.497876657384e-15 
   57       2.079340615294e-10       2.348097922780e-14      -1.337179917149e-13       1.372102783785e-16       4.046956338740e-11       4.495888142129e-12      -8.772917085239e-15 
   58       2.107610115286e-10       2.475836701535e-14      -1.705744671688e-13       1.420862796870e-16       3.892908075407e-11       4.344210062759e-12      -9.122332269943e-15 
   59       2.136173471387e-10       2.607370078734e-14      -2.092440522708e-13       1.470458888904e-16       3.746988334821e-11       4.200228112461e-12      -9.500500496878e-15 
   60       2.165022619426e-10       2.742712814732e-14      -2.497550665220e-13       1.520889014999e-16       3.608230894077e-11       4.062830656786e-12      -9.854873631235e-15 
   61       2.194145853265e-10       2.881865099875e-14      -2.921275961608e-13       1.572151661402e-16       3.475630354343e-11       3.930891219767e-12      -1.013727278368e-14 
   62       2.223554841427e-10       3.024768257237e-14      -3.363428394816e-13       1.624247730608e-16       3.349057688451e-11       3.804322936068e-12      -1.034141448991e-14 
   63       2.253262295269e-10       3.171339166725e-14      -3.823670564620e-13       1.677179086972e-16       3.228521062161e-11       3.683230389821e-12      -1.047331547002e-14 
   64       2.283273467526e-10       3.321482626779e-14      -4.301602150162e-13       1.730948038252e-16       3.113890408072e-11       3.567594678794e-12      -1.054050879896e-14 
   65       2.313585629908e-10       3.475090987759e-14      -4.796758083818e-13       1.785557357104e-16       3.004889549165e-11       3.457266108548e-12      -1.055211281417e-14 
   66       2.344187550709e-10       3.632043785331e-14      -5.308606725045e-13       1.841010302578e-16       2.901088322326e-11       3.351956886596e-12      -1.051890002315e-14 
   67       2.375058972408e-10       3.792207373860e-14      -5.836548034245e-13       1.897310641618e-16       2.801894701890e-11       3.251233816565e-12      -1.045336601116e-14 
   68       2.406180129670e-10       3.955449609857e-14      -6.380024575204e-13       1.954462277125e-16       2.706713247577e-11       3.154643094765e-12      -1.036735024232e-14 
   69       2.437563710618e-10       4.121688176735e-14      -6.938884722603e-13       2.012467996594e-16       2.615475336397e-11       3.062130394514e-12      -1.026418462294e-14 
   70       2.469228463054e-10       4.290851438316e-14      -7.513090107492e-13       2.071330507373e-16       2.528202713712e-11       2.973693168529e-12      -1.014507050946e-14 
   71       2.501189466222e-10       4.462864273119e-14      -8.102610340896e-13       2.131052818885e-16       2.444847117273e-11       2.889252221045e-12      -1.001139223539e-14 
   72       2.533457865197e-10       4.637648092665e-14      -8.707424073317e-13       2.191638254065e-16       2.365286654585e-11       2.808647780558e-12      -9.864723407511e-15 
   73       2.566040605278e-10       4.815120859775e-14      -9.327520054231e-13       2.253090460795e-16       2.289322180252e-11       2.731635572560e-12      -9.706833202074e-15 
   74       2.598940166372e-10       4.995197106868e-14      -9.962898191588e-13       2.315413423339e-16       2.216673673339e-11       2.657882892279e-12      -9.539692661001e-15 
   75       2.632154297391e-10       5.177787954267e-14      -1.061357061131e-12       2.378611473774e-16       2.146976614724e-11       2.586964677414e-12      -9.365480988087e-15 
   76       2.665679328885e-10       5.362794710635e-14      -1.127947952397e-12       2.442688395011e-16       2.079872681826e-11       2.518468717579e-12      -9.186580033547e-15 
   77       2.699521395470e-10       5.550088286556e-14      -1.196023119161e-12       2.507644515735e-16       2.015308934361e-11       2.452342113314e-12      -9.005542668594e-15 
   78       2.733686786816e-10       5.739526042734e-14      -1.265531514795e-12       2.573479104024e-16       1.953286858413e-11       2.388601154033e-12      -8.825130055946e-15 
   79       2.768178361822e-10       5.930957763340e-14      -1.336418245158e-12       2.640191221695e-16       1.893771227840e-11       2.327226124128e-12      -8.648328905911e-15 
   80       2.802995356387e-10       6.124225542715e-14      -1.408624503946e-12       2.707779717110e-16       1.836688415689e-11       2.268159613645e-12      -8.478357530382e-15 
   81       2.838133191170e-10       6.319163672069e-14      -1.482087508052e-12       2.776243217984e-16       1.781924705597e-11       2.211304828962e-12      -8.318671896828e-15 
   82       2.873583279356e-10       6.515598526169e-14      -1.556740432918e-12       2.845580124189e-16       1.729324603207e-11       2.156523903456e-12      -8.172971682290e-15 
   83       2.909332834426e-10       6.713348450045e-14      -1.632512347896e-12       2.915788600565e-16       1.678689147574e-11       2.103636208183e-12      -8.045206327369e-15 
   84       2.945369627278e-10       6.912231131292e-14      -1.709333884178e-12       2.986867054477e-16       1.629824400015e-11       2.052464518301e-12      -7.938550767887e-15 
   85       2.981697584817e-10       7.112087369417e-14      -1.787155459792e-12       3.058815675221e-16       1.582699845448e-11       2.002986006380e-12      -7.852124269998e-15 
   86       3.018323436855e-10       7.312761057532e-14      -1.865931971453e-12       3.131635137818e-16       1.537313276787e-11       1.955203299676e-12      -7.783736218055e-15 
   87       3.055251889219e-10       7.514092059420e-14      -1.945617361851e-12       3.205326141890e-16       1.493642119463e-11       1.909097977978e-12      -7.730856977445e-15 
   88       3.092485514700e-10       7.715916222037e-14      -2.026164651351e-12       3.279889412615e-16       1.451642586153e-11       1.864629688584e-12      -7.690606632241e-15 
   89       3.130024643997e-10       7.918065388021e-14      -2.107525969696e-12       3.355325701681e-16       1.411248831508e-11       1.821735261272e-12      -7.659743722854e-15 
   90       3.167867256671e-10       8.120367408197e-14      -2.189652587710e-12       3.431635788238e-16       1.372372106877e-11       1.780327823272e-12      -7.634653983682e-15 
   91       3.206008872087e-10       8.322646154081e-14      -2.272494949002e-12       3.508820479854e-16       1.334899915040e-11       1.740295914240e-12      -7.611339080763e-15 
   92       3.244442440366e-10       8.524721530387e-14      -2.356002701661e-12       3.586880613469e-16       1.298695164932e-11       1.701502601229e-12      -7.585405349423e-15 
   93       3.283160831432e-10       8.726411519443e-14      -2.440123306158e-12       3.665818100672e-16       1.263628787039e-11       1.663819196991e-12      -7.552966739542e-15 
   94       3.322164967251e-10       8.927538639016e-14      -2.524797550652e-12       3.745639241298e-16       1.229685026820e-11       1.627234138194e-12      -7.513533459068e-15 
   95       3.361456716749e-10       9.127924483384e-14      -2.609963416662e-12       3.826351912278e-16       1.196870498285e-11       1.591758922366e-12      -7.467538981267e-15 
   96       3.401036334280e-10       9.327387817822e-14      -2.695557454764e-12       3.907964582809e-16       1.165181753566e-11       1.557394559093e-12      -7.415465817236e-15 
   97       3.440902386240e-10       9.525744619001e-14      -2.781514796756e-12       3.990486329637e-16       1.134604896956e-11       1.524131159993e-12      -7.357846802734e-15 
   98       3.481051677678e-10       9.722808115382e-14      -2.867769167812e-12       4.073926852351e-16       1.105115198940e-11       1.491947528679e-12      -7.295266385013e-15 
   99       3.521479178907e-10       9.918388827617e-14      -2.954252898640e-12       4.158296488669e-16       1.076676710238e-11       1.460810750727e-12      -7.228361909644e-15 
  100       3.562177952116e-10       1.011229460894e-13      -3.040896937639e-12       4.243606229730e-16       1.049241875837e-11       1.430675783639e-12      -7.157824907344e-15 
  101       3.603139077981e-10       1.030433068558e-13      -3.127630863059e-12       4.329867735382e-16       1.022751149028e-11       1.401485046817e-12      -7.084402380811e-15 
  102       3.644351582278e-10       1.049429969713e-13      -3.214382895157e-12       4.417093349471e-16       9.971326054466e-12       1.373168011522e-12      -7.008898091548e-15 
  103       3.685802362490e-10       1.068200173697e-13      -3.301079908354e-12       4.505296115130e-16       9.723015571053e-12       1.345640790846e-12      -6.932173846694e-15 
  104       3.727478920573e-10       1.086723959576e-13      -3.387648745574e-12       4.594488203177e-16       9.481798043694e-12       1.318825504480e-12      -6.855001498481e-15 
  105       3.769378139730e-10       1.104983521161e-13      -3.474020337274e-12       4.684675922590e-16       9.247571850262e-12       1.292712235365e-12      -6.777593401662e-15 
  106       3.811498561951e-10       1.122961552774e-13      -3.560126164087e-12       4.775864061383e-16       9.020376587577e-12       1.267304717026e-12      -6.700010631467e-15 
  107       3.853837645700e-10       1.140640758421e-13      -3.645897030483e-12       4.868057411192e-16       8.800202435562e-12       1.242601115745e-12      -6.622306257483e-15 
