# dimensionless total lensed [l(l+1)/2pi] C_l's
# for l=2 to 2500, i.e. number of multipoles equal to 2499
#
# -> if you prefer output in CAMB/HealPix/LensPix units/order, set 'format' to 'camb' in input file
# -> if you don't want to see such a header, set 'headers' to 'no' in input file
# -> for CMB lensing (phi), these are C_l^phi-phi for the lensing potential.
#    Remember the conversion factors:
#    C_l^dd (deflection) = l(l+1) C_l^phi-phi
#    C_l^gg (shear/convergence) = 1/4 (l(l+1))^2 C_l^phi-phi
#
# 1:l     2:TT                     3:EE                     4:TE                     5:BB                     6:phiphi                 7:TPhi                   8:Ephi               
    2       1.381678120524e-10       4.179730739619e-15       3.519338690442e-13       2.309814367665e-19       8.236345150001e-09       4.535748255372e-10      -1.842360011505e-12 
    3       1.306697105150e-10       5.354811744768e-15       3.955017202331e-13       4.620579482608e-19       5.068763774060e-09       3.217368792503e-10      -1.394919961021e-12 
    4       1.236018486558e-10       4.629636105345e-15       3.698085802006e-13       7.703059491906e-19       3.524744050091e-09       2.436997186907e-10      -9.127419616417e-13 
    5       1.183101461768e-10       3.087195037068e-15       3.148768890049e-13       1.155846949852e-18       2.631980849618e-09       1.925368329034e-10      -5.069338581624e-13 
    6       1.146814204439e-10       1.726131370307e-15       2.535647662579e-13       1.618828443282e-18       2.056887115933e-09       1.566785423590e-10      -2.081012115109e-13 
    7       1.123169587111e-10       9.336980069407e-16       1.990690121062e-13       2.159421173049e-18       1.660291796462e-09       1.303589665752e-10      -1.764540102995e-14 
    8       1.109368318032e-10       6.038791184286e-16       1.571589773471e-13       2.777816043081e-18       1.372925898541e-09       1.103958055182e-10       7.941419035818e-14 
    9       1.102929568007e-10       4.859032976212e-16       1.291081538953e-13       3.474220761026e-18       1.156601766700e-09       9.490324149816e-11       1.064376884545e-13 
   10       1.101545799538e-10       4.150001485324e-16       1.135881001047e-13       4.248856313127e-18       9.888512984077e-10       8.262930828114e-11       8.927910828334e-14 
   11       1.104630141258e-10       3.497495794131e-16       1.079366556151e-13       5.101953371561e-18       8.333804438504e-10       7.300889256509e-11       5.203126185902e-14 
   12       1.110665378088e-10       3.057949933831e-16       1.090961994232e-13       6.033748734748e-18       7.283489684428e-10       6.455579612079e-11       1.227603018618e-14 
   13       1.119148714946e-10       2.941344861680e-16       1.143824878800e-13       7.044481897117e-18       6.421078170111e-10       5.769182976164e-11      -1.798980429822e-14 
   14       1.129606485556e-10       3.068004363796e-16       1.217751845390e-13       8.134391837629e-18       5.703409242205e-10       5.171517042175e-11      -3.451226175674e-14 
   15       1.141905082118e-10       3.320500234379e-16       1.299847459108e-13       9.303714106063e-18       5.099194211027e-10       4.668819694993e-11      -3.750070597487e-14 
   16       1.155291693466e-10       3.673601061983e-16       1.383481934125e-13       1.055267827331e-17       4.585371828678e-10       4.235489223458e-11      -3.091277377868e-14 
   17       1.170042626567e-10       4.182595925157e-16       1.466477804156e-13       1.188150579703e-17       4.144517924990e-10       3.857282697361e-11      -1.994056275643e-14 
   18       1.185525851111e-10       4.901783916070e-16       1.551404334911e-13       1.329040815699e-17       3.761812931012e-10       3.527415860097e-11      -9.473504336264e-15 
   19       1.201853774986e-10       5.834443389980e-16       1.640480627722e-13       1.477958654183e-17       3.431210303792e-10       3.241158889319e-11      -2.117096497593e-15 
   20       1.218953901663e-10       6.960571366642e-16       1.735113690328e-13       1.634922909702e-17       3.139983697636e-10       2.986962331599e-11       4.177762113757e-16 
   21       1.236841133740e-10       8.273741239312e-16       1.834832195306e-13       1.799951342670e-17       2.883573077029e-10       2.760240582578e-11      -1.297288170452e-15 
   22       1.255254949817e-10       9.769046265221e-16       1.937768065281e-13       1.973060357540e-17       2.655859263383e-10       2.555360741026e-11      -5.508471194397e-15 
   23       1.274244059317e-10       1.144847851494e-15       2.040648979221e-13       2.154265394825e-17       2.453722026978e-10       2.371510410056e-11      -1.047333150608e-14 
   24       1.293744835941e-10       1.331435103112e-15       2.139327727943e-13       2.343580624026e-17       2.272498741422e-10       2.207080906106e-11      -1.433775676654e-14 
   25       1.313776895121e-10       1.536752370730e-15       2.230927577834e-13       2.541019501758e-17       2.110064573158e-10       2.060001864960e-11      -1.626984659382e-14 
   26       1.334227864449e-10       1.761074197055e-15       2.312984538136e-13       2.746594401605e-17       1.963485971766e-10       1.926614701791e-11      -1.593292920174e-14 
   27       1.355047349757e-10       2.006414735909e-15       2.384327897857e-13       2.960317149248e-17       1.831009204646e-10       1.805185068871e-11      -1.394335964061e-14 
   28       1.376117849676e-10       2.275305655534e-15       2.444501336246e-13       3.182198769491e-17       1.710355013709e-10       1.693816083109e-11      -1.130862044428e-14 
   29       1.397530999606e-10       2.569153098364e-15       2.494203803699e-13       3.412250353687e-17       1.600910597826e-10       1.592309867555e-11      -8.694788584417e-15 
   30       1.419331466567e-10       2.888991443990e-15       2.534893484134e-13       3.650482338298e-17       1.501504375616e-10       1.500090206495e-11      -6.780530507529e-15 
   31       1.441459250378e-10       3.235820485514e-15       2.568051218015e-13       3.896904501288e-17       1.410112966236e-10       1.415711700443e-11      -6.191206259547e-15 
   32       1.463944526057e-10       3.610698361071e-15       2.593115723751e-13       4.151527047952e-17       1.326266418174e-10       1.338328254454e-11      -6.736509410343e-15 
   33       1.486759028143e-10       4.014675172450e-15       2.608762758913e-13       4.414359913087e-17       1.249373387648e-10       1.266600034614e-11      -7.873703732580e-15 
   34       1.509805453665e-10       4.448717127804e-15       2.613514042048e-13       4.685412628154e-17       1.178359772176e-10       1.198854856356e-11      -9.001047590630e-15 
   35       1.533105680979e-10       4.913541327157e-15       2.606074482642e-13       4.964694846012e-17       1.112863451003e-10       1.135288434278e-11      -9.839006810827e-15 
   36       1.556661073590e-10       5.409710144684e-15       2.585089161567e-13       5.252216012821e-17       1.052360398634e-10       1.076458194230e-11      -1.017397262897e-14 
   37       1.580430331601e-10       5.937757573256e-15       2.549327162032e-13       5.547985181550e-17       9.960648569954e-11       1.022623729031e-11      -9.836477614520e-15 
   38       1.604453766171e-10       6.498503754346e-15       2.498656832151e-13       5.852010807081e-17       9.438323045777e-11       9.735698414421e-12      -8.978604955716e-15 
   39       1.628758621541e-10       7.092838072875e-15       2.433399900331e-13       6.164300897051e-17       8.954978662963e-11       9.286719354826e-12      -7.892051128140e-15 
   40       1.653318541241e-10       7.721633669272e-15       2.354086479950e-13       6.484863074716e-17       8.506016191665e-11       8.869014780620e-12      -6.939779197744e-15 
   41       1.678081304775e-10       8.385702229032e-15       2.261244015886e-13       6.813704286171e-17       8.085490141246e-11       8.471390639226e-12      -6.460920666207e-15 
   42       1.703076550263e-10       9.085643111631e-15       2.154651359783e-13       7.150829792639e-17       7.692168331323e-11       8.093148146368e-12      -6.437193101242e-15 
   43       1.728333559593e-10       9.821943384984e-15       2.033862969664e-13       7.496243860456e-17       7.325011623512e-11       7.735841607377e-12      -6.725630866491e-15 
   44       1.753847548176e-10       1.059501378580e-14       1.898408756126e-13       7.849950017505e-17       6.981355441472e-11       7.400053307960e-12      -7.146695686025e-15 
   45       1.779595620395e-10       1.140522948024e-14       1.747807424528e-13       8.211950676016e-17       6.657862715920e-11       7.085532270691e-12      -7.524039893430e-15 
   46       1.805598305822e-10       1.225307646320e-14       1.581618016972e-13       8.582245901052e-17       6.354027442309e-11       6.791870542911e-12      -7.823297914758e-15 
   47       1.831870658370e-10       1.313904200702e-14       1.399398900488e-13       8.960834248895e-17       6.069498390660e-11       6.517877106427e-12      -8.050943470336e-15 
   48       1.858402296791e-10       1.406357218514e-14       1.200691010044e-13       9.347713062986e-17       5.803022318424e-11       6.261293091000e-12      -8.216024424654e-15 
   49       1.885155131575e-10       1.502707038593e-14       9.850159139544e-14       9.742878438377e-17       5.552376879665e-11       6.018715562360e-12      -8.330322865639e-15 
   50       1.912084955581e-10       1.602986940148e-14       7.519274312302e-14       1.014632518509e-16       5.315040465187e-11       5.786570681107e-12      -8.408813750310e-15 
   51       1.939218398599e-10       1.707214221043e-14       5.011874894215e-14       1.055804678893e-16       5.090571722496e-11       5.564521402051e-12      -8.470816224459e-15 
   52       1.966592932023e-10       1.815396440919e-14       2.326346573378e-14       1.097803537858e-16       4.878759959033e-11       5.352853019253e-12      -8.539431522517e-15 
   53       1.994233707930e-10       1.927533585559e-14      -5.386466324144e-15       1.140628169101e-16       4.678913020015e-11       5.151478445894e-12      -8.641441713422e-15 
   54       2.022152408971e-10       2.043617793909e-14      -3.584156520668e-14       1.184277503591e-16       4.489824876713e-11       4.959911384444e-12      -8.807483830073e-15 
   55       2.050352705185e-10       2.163638001330e-14      -6.810968734965e-14       1.228750409920e-16       4.310143854857e-11       4.777500986447e-12      -9.062340243997e-15 
   56       2.078850846685e-10       2.287595845444e-14      -1.021967551587e-13       1.274045966912e-16       4.139658693138e-11       4.604265561181e-12      -9.392586256330e-15 
   57       2.107658172126e-10       2.415493233510e-14      -1.381061076742e-13       1.320163252504e-16       3.978275197574e-11       4.440218983586e-12      -9.771210475311e-15 
   58       2.136774076710e-10       2.547327692758e-14      -1.758382293760e-13       1.367101265476e-16       3.825627156012e-11       4.285111070783e-12      -1.016658805469e-14 
   59       2.166185119483e-10       2.683092288956e-14      -2.153907009394e-13       1.414858925159e-16       3.681059535767e-11       4.138410940153e-12      -1.054226974186e-14 
   60       2.195864130639e-10       2.822775544982e-14      -2.567581499916e-13       1.463435071148e-16       3.543611681258e-11       3.999290367431e-12      -1.085677092589e-14 
   61       2.225782822190e-10       2.966353588545e-14      -2.999326350476e-13       1.512828618165e-16       3.412284217857e-11       3.866854476819e-12      -1.107304340709e-14 
   62       2.255954947268e-10       3.113764719937e-14      -3.449050094281e-13       1.563039061940e-16       3.286947782934e-11       3.740931969157e-12      -1.118985233938e-14 
   63       2.286401288364e-10       3.264928965265e-14      -3.916637774967e-13       1.614066086879e-16       3.167609381441e-11       3.621433544810e-12      -1.121709989358e-14 
   64       2.317136553758e-10       3.419755022078e-14      -4.401946536988e-13       1.665909425474e-16       3.054139032703e-11       3.508111603479e-12      -1.116685838079e-14 
   65       2.348168913267e-10       3.578139931377e-14      -4.904805270623e-13       1.718568862929e-16       2.946261969844e-11       3.400551449953e-12      -1.105346652598e-14 
   66       2.379499533996e-10       3.739968749628e-14      -5.425014256981e-13       1.772044241800e-16       2.843550839197e-11       3.298162499844e-12      -1.089362574144e-14 
   67       2.411122116092e-10       3.905114220766e-14      -5.962344813007e-13       1.826335466619e-16       2.745417899731e-11       3.200169485335e-12      -1.070649640036e-14 
   68       2.443028958899e-10       4.073449930837e-14      -6.516554868102e-13       1.881442590010e-16       2.651272061341e-11       3.105811333234e-12      -1.051011741148e-14 
   69       2.475231624482e-10       4.244893600277e-14      -7.087440152574e-13       1.937366080906e-16       2.561044386523e-11       3.015004251717e-12      -1.030960729046e-14 
   70       2.507743646317e-10       4.419372014878e-14      -7.674792791244e-13       1.994106619252e-16       2.474755545110e-11       2.927797821361e-12      -1.010673428019e-14 
   71       2.540574077453e-10       4.596808335843e-14      -8.278386341083e-13       2.051665025931e-16       2.392356876258e-11       2.844175790343e-12      -9.903383715183e-15 
   72       2.573727193276e-10       4.777122116623e-14      -8.897975843671e-13       2.110042269482e-16       2.313726803689e-11       2.764052591496e-12      -9.701560261927e-15 
   73       2.607202194285e-10       4.960229319748e-14      -9.533297877667e-13       2.169239472813e-16       2.238667250937e-11       2.687269859361e-12      -9.503390159151e-15 
   74       2.640992908859e-10       5.146042333665e-14      -1.018407061127e-12       2.229257919921e-16       2.166900056599e-11       2.613592947246e-12      -9.311123458151e-15 
   75       2.675087496024e-10       5.334469989564e-14      -1.084999385468e-12       2.290099062609e-16       2.098063389577e-11       2.542707444282e-12      -9.127136263095e-15 
   76       2.709474314776e-10       5.525411215152e-14      -1.153074518108e-12       2.351764454533e-16       2.031801596677e-11       2.474301946231e-12      -8.953619755339e-15 
   77       2.744161424706e-10       5.718734622677e-14      -1.222596735680e-12       2.414255524645e-16       1.968061584870e-11       2.408341492486e-12      -8.791576845567e-15 
   78       2.779160117919e-10       5.914295211969e-14      -1.293527870370e-12       2.477573774446e-16       1.906844224097e-11       2.344837895488e-12      -8.641645776460e-15 
   79       2.814478899941e-10       6.111940291488e-14      -1.365827679952e-12       2.541720852130e-16       1.848114067762e-11       2.283766223956e-12      -8.504392992327e-15 
   80       2.850123318940e-10       6.311509364680e-14      -1.439453844983e-12       2.606698557808e-16       1.791797683892e-11       2.225063088657e-12      -8.380308956665e-15 
   81       2.886095794944e-10       6.512834016323e-14      -1.514361965980e-12       2.672508848732e-16       1.737781986283e-11       2.168624928153e-12      -8.269803969718e-15 
   82       2.922395449060e-10       6.715737798892e-14      -1.590505560609e-12       2.739153844526e-16       1.685912565656e-11       2.114306294570e-12      -8.173203986036e-15 
   83       2.959017932698e-10       6.920036118904e-14      -1.667836060867e-12       2.806635832410e-16       1.635992020811e-11       2.061918139350e-12      -8.090746432038e-15 
   84       2.995958261572e-10       7.125543147320e-14      -1.746303332996e-12       2.874957237010e-16       1.587827947443e-11       2.011275121409e-12      -8.022306549597e-15 
   85       3.033220231625e-10       7.332094115947e-14      -1.825857342427e-12       2.944120512596e-16       1.541389700907e-11       1.962350297683e-12      -7.966533463312e-15 
   86       3.070808258207e-10       7.539526526133e-14      -1.906446760966e-12       3.014128242481e-16       1.496674682480e-11       1.915143053254e-12      -7.921562557290e-15 
   87       3.108724391568e-10       7.747673457692e-14      -1.988018474493e-12       3.084983177408e-16       1.453660170355e-11       1.869631481823e-12      -7.885263632049e-15 
   88       3.146968196583e-10       7.956363573318e-14      -2.070517588929e-12       3.156688240181e-16       1.412302485372e-11       1.825771495373e-12      -7.855232193109e-15 
   89       3.185536632470e-10       8.165421122987e-14      -2.153887436210e-12       3.229246530297e-16       1.372536156754e-11       1.783495933839e-12      -7.828780739573e-15 
   90       3.224423932509e-10       8.374665948361e-14      -2.238069580251e-12       3.302661328578e-16       1.334273087848e-11       1.742713674763e-12      -7.802930052714e-15 
   91       3.263621483765e-10       8.583913487192e-14      -2.323003822920e-12       3.376936101797e-16       1.297401721849e-11       1.703308742969e-12      -7.774400484562e-15 
   92       3.303117706808e-10       8.792974777732e-14      -2.408628210008e-12       3.452074507316e-16       1.261786207548e-11       1.665139420218e-12      -7.739603246484e-15 
   93       3.342901566806e-10       9.001659279659e-14      -2.494879909552e-12       3.528080475364e-16       1.227298638499e-11       1.628072831181e-12      -7.695466453761e-15 
   94       3.382973972111e-10       9.209783812631e-14      -2.581697984962e-12       3.604958459981e-16       1.193923129142e-11       1.592096585447e-12      -7.642074296057e-15 
   95       3.423337875615e-10       9.417164976490e-14      -2.669021051949e-12       3.682713234557e-16       1.161665922103e-11       1.557222358466e-12      -7.580410538785e-15 
   96       3.463994726639e-10       9.623616497016e-14      -2.756786461042e-12       3.761349823160e-16       1.130523334292e-11       1.523451513404e-12      -7.511561844818e-15 
   97       3.504944400501e-10       9.828949268990e-14      -2.844930315527e-12       3.840873506238e-16       1.100481376635e-11       1.490774697786e-12      -7.436720521637e-15 
   98       3.546185128085e-10       1.003297139926e-13      -2.933387489395e-12       3.921289826309e-16       1.071515373803e-11       1.459171440135e-12      -7.357187268470e-15 
   99       3.587713425409e-10       1.023548824981e-13      -3.022091645285e-12       4.002604593664e-16       1.043589583936e-11       1.428609746618e-12      -7.274373923440e-15 
  100       3.629524023190e-10       1.043630248082e-13      -3.110975252430e-12       4.084823892063e-16       1.016656818380e-11       1.399045697685e-12      -7.189806210703e-15 
  101       3.671609796414e-10       1.063521409376e-13      -3.199969604601e-12       4.167954084429e-16       9.906580614103e-12       1.370423044709e-12      -7.105126487600e-15 
  102       3.713961693905e-10       1.083202047441e-13      -3.289004838051e-12       4.252001818546e-16       9.655220899603e-12       1.342672806633e-12      -7.022096491792e-15 
  103       3.756568667890e-10       1.102651643597e-13      -3.378009949460e-12       4.336974032760e-16       9.411650933539e-12       1.315712866608e-12      -6.942600088409e-15 
  104       3.799419992406e-10       1.121849937590e-13      -3.466913371686e-12       4.422877760406e-16       9.175096751766e-12       1.289467257429e-12      -6.868239051316e-15 
  105       3.842512726899e-10       1.140778544711e-13      -3.555644750943e-12       4.509719500762e-16       8.945456013062e-12       1.263927853594e-12      -6.799052302491e-15 
  106       3.885845134234e-10       1.159419566174e-13      -3.644133444268e-12       4.597505773348e-16       8.722765873242e-12       1.239100299767e-12      -6.734627976593e-15 
  107       3.929414338244e-10       1.177755107048e-13      -3.732308006930e-12       4.686243315043e-16       8.507014839090e-12       1.214984881426e-12      -6.674493232908e-15 
